Time (s),Gas_1,Gas_2,Gas_3,Gas_4,Gas_5,Gas_6,Gas_7,Gas_8,Gas_9,Gas_10,Gas_11,Gas_12,Gas_13,Gas_14,Gas_15,Gas_16,Gas_17,Gas_18
0,0.4323419,0.6705773,0.4868645,-0.1338142,-0.0505669,0.6950523,0.7097235,0.1305775,0.1521509,0.5028868,0.1109347,0.8216495,0.5852316,0.5481841,0.136035,0.5646023,0.5692945,0.330206
1,0.7991245,1.0135978,1.3806694,1.3452491,0.5399482,2.0370239,1.6567694,1.0822083,0.9623218,1.0734808,1.3322706,1.4454464,2.2577163,0.9651067,0.7575362,2.5318911,2.7834858,1.6664631
2,2.4630531,3.5516333,3.334991,5.3733202,2.599843,6.0243619,3.9398327,3.872077,2.4102943,2.4174587,4.023755,2.7200121,6.7605315,2.6039121,1.5348425,6.896874,6.9814525,5.329166
3,8.1079314,9.8241383,8.4697457,13.6850016,10.107277,11.9300611,7.9426903,8.907554,5.7937618,5.1219834,9.3656424,4.9670734,13.2113502,5.7416519,3.939241,13.3761249,13.8965055,10.978842
4,17.7499251,18.5351676,15.8968177,24.0477729,20.0473227,18.7157624,13.3143956,15.4874689,9.7625593,9.4107698,15.314029,9.355879,19.9243672,9.5025644,8.5094058,20.3955059,20.534994,17.5441388
5,28.6482936,28.9247965,24.3746029,33.7489926,29.7119478,26.701816,18.4753957,21.941436,15.1483453,14.2857844,20.8747682,15.0535012,25.3585123,13.136681,15.1754892,26.4489796,27.7194364,23.8211467
6,37.7172997,38.8910048,32.4087234,40.1416384,38.8793085,32.9969314,22.8045869,27.0589636,20.8371347,19.2821518,26.3285917,21.4376902,29.5626509,17.7237109,21.4756961,29.9912541,33.732063,28.1958294
7,44.6405809,45.002464,40.9264203,44.548627,44.4054942,39.6975526,25.4433421,31.6082402,25.2408202,24.2053269,30.0428369,27.0871906,33.4419092,22.2861976,27.9540073,34.9173871,36.6993127,32.3027177
8,50.1235044,51.2688805,46.7248304,47.6699018,49.3931078,44.8491913,29.4293224,33.6875208,28.6364845,28.1613256,32.6596301,31.6626752,35.8288208,26.028932,32.2746177,37.6519649,39.6685159,35.9229934
9,53.5391363,54.64524,51.8556268,50.2243015,51.5245957,51.3012993,32.0358383,36.2485115,32.1551846,32.2238072,35.8291794,35.4597696,38.0897842,29.4701247,37.2643226,40.3777891,41.6720757,37.9330349
10,57.8219054,56.4990137,56.7512571,53.4813478,53.7923317,56.367679,35.6068374,37.7780525,35.2366061,35.2581502,37.7430834,39.2438371,39.8777291,32.3069832,41.8005018,40.9246813,43.7570773,40.3642084
11,58.7706635,60.1773836,60.0998102,55.3754378,55.8470534,58.8878183,38.9382757,38.9101559,38.5129997,38.7203966,40.7007857,41.9963606,42.5279009,36.1944282,44.5278568,44.6788715,45.4351043,42.3508043
12,62.1303347,59.7606662,62.7005818,56.7815395,56.8375545,59.9754623,41.0290448,40.9586468,41.6414579,40.5290255,43.4924907,43.5149804,43.2908242,38.5705067,47.2203266,46.3374174,47.0945915,45.4741218
13,62.6004891,62.0687317,66.376901,57.1350854,57.991708,61.4242838,44.4161055,42.3702661,43.3820796,41.9049771,47.8275551,44.6598875,44.0272543,41.6432698,49.9921652,49.1357882,49.0406455,47.2356493
14,61.937633,65.3112102,68.3372532,58.3300449,58.8698676,61.3233874,46.4757919,42.9228816,45.7902294,42.6903399,50.0873552,46.3428701,44.7953669,44.7433442,51.6254759,50.8373534,49.4337558,49.833662
15,63.2818716,66.8506,69.5311468,58.0952999,58.2959253,60.5079273,47.5423241,44.3987979,46.8743793,43.6550523,51.865553,46.1763464,46.7633613,47.0837169,52.8390798,52.7239337,52.6160566,51.3830634
16,63.5415796,69.3584891,71.700381,58.7184274,58.7056884,61.3398256,48.8681678,46.5983634,49.5745355,44.7574333,53.7521506,47.2303333,46.7377226,49.9025219,51.1975251,53.2980373,54.3551146,53.6363309
17,63.9765079,69.7395492,76.4045988,59.6361026,61.7663987,61.6859881,50.0936192,47.8960611,50.1686591,45.4796787,54.0140391,47.5128937,46.8194209,50.9171546,51.0916423,53.8218083,55.6603145,55.6784224
18,63.1091444,70.0360305,80.6381734,59.563524,64.8408367,61.7462013,50.7527165,50.4214993,51.0655942,46.1396346,54.7609443,46.8925885,48.3775029,52.2695548,51.2666339,53.9851323,56.9344182,56.9632249
19,62.9614878,70.5212698,84.9558098,61.5270707,66.6230432,61.6979468,53.5656009,51.5192235,51.8413443,46.5175302,53.1495396,46.2784248,48.4978407,52.6008719,50.5405877,55.6171985,55.9512473,58.502313
20,65.0821661,71.9523354,86.6467596,59.6368286,70.331261,61.6141638,56.3787462,51.4808086,50.4857178,47.6855652,52.5484608,47.4613336,49.8706532,52.5817818,49.5291725,54.4574219,57.3704688,58.8279064
21,68.6514663,72.9134154,89.0636453,59.623745,71.6700844,62.3299024,57.8979803,53.0166393,52.7287328,48.3252992,52.7304767,46.4861915,48.950858,52.2252755,49.2184202,56.0216642,58.9322421,57.8740857
22,68.4130876,73.2978466,90.2491754,60.3104076,69.7378329,64.8617248,59.5756772,52.9499899,53.1468226,49.1616868,50.9096413,46.2472467,49.1721066,52.4975391,51.2036222,56.4386712,59.7585013,58.9003141
23,71.0640651,73.3954709,91.947406,59.7403916,68.3576604,65.9220236,61.3923194,52.7965991,54.8091526,50.6991187,51.9026158,47.0115657,50.7659851,52.6787543,51.3071327,56.3685163,60.9415237,59.0080364
24,72.6357339,74.9395765,93.2687502,61.0141014,66.3358032,65.8385475,61.7212646,54.3444551,56.8273609,52.8218715,52.1316468,47.6959522,51.1655549,52.1871802,53.6390551,57.0241206,63.030306,58.5220304
25,74.113665,78.2427882,93.3243672,62.1160268,68.4308103,67.33127,61.830837,53.9984089,58.7378619,54.4514446,52.2103457,50.7297006,52.0909199,54.9728168,52.1732531,57.3765332,64.3595135,58.1283755
26,74.2113364,82.4379379,91.5365366,61.7641489,68.9681101,68.3399933,58.7583548,52.9466181,61.0999824,56.76583,51.9139758,51.1289319,53.6019496,57.3250071,52.7552225,57.3766151,65.1852749,58.1927834
27,74.4778033,85.1170782,90.3796061,62.5230608,69.7361789,69.6916923,59.2383181,54.5496504,61.5363465,60.1928463,52.5509169,52.1506187,55.0824088,56.473846,51.7699496,56.704403,61.6482811,60.4374441
28,75.8620387,88.0435062,85.8468475,64.0930999,66.7168063,71.0325568,61.2768911,57.3521339,62.7852728,61.4840923,54.5146523,53.9270217,54.2271388,56.764536,53.9053151,56.9569669,61.3281243,61.8378192
29,77.4032054,87.654855,84.9158052,64.335235,68.7431208,72.9438199,61.5667573,57.9623521,62.6817606,62.4636732,55.8170283,55.8166225,55.4055278,55.6824382,52.8304134,58.3689902,62.4673046,64.5417533
30,77.4658379,86.559316,83.3985005,64.5522933,68.5949551,74.7652562,63.2969119,58.5900211,63.3753738,62.5535888,56.8026606,57.1286724,54.4816335,54.8971139,53.5704362,58.3655634,62.3835084,68.4823769
31,76.3353214,85.3119605,81.7952397,62.4621978,67.8141181,79.5905886,63.1740548,60.8379768,63.299352,62.3745727,57.9165866,56.0949281,53.1387648,53.5117608,53.5592191,59.3791571,63.0000738,71.1292211
32,74.9809473,83.7089544,80.3480464,61.8348003,68.9975145,82.6739746,65.9878342,61.3749062,62.443477,63.8146801,58.5540824,56.5669421,54.286144,54.3625037,56.4882155,59.7782626,62.6064059,72.3880277
33,74.4250463,80.9577166,79.8715673,64.2937598,70.7913673,86.1014195,66.8340761,62.3631594,62.1807047,64.2348521,57.5281526,55.6320749,53.428536,53.8224741,57.2277802,60.6457806,62.0359505,73.6478777
34,74.3488184,79.7888273,79.2193466,65.7760029,73.4479481,85.8566294,69.7611887,62.7462007,61.9378059,64.9130401,57.4427823,55.6999698,55.4104304,56.0146681,60.8032037,61.8126175,60.2880963,72.066179
35,75.4715457,80.0844419,78.1434148,66.7939713,75.9047485,87.3789323,69.4699293,61.4106515,61.1987192,65.6591051,56.5398603,55.7655495,54.7103691,55.8572963,63.2272884,62.0514194,61.6020205,73.1415488
36,75.0329691,80.4039053,78.6179613,68.0487296,76.7347657,90.522146,71.5086708,59.4820247,61.7066323,67.8101028,56.2512738,54.8231048,54.242034,56.0545441,65.982096,62.99155,62.1856586,73.3805596
37,75.2603222,86.413146,80.3833315,73.1132173,77.3463316,91.7874228,71.8952841,58.9000347,61.2497845,68.3339806,56.5315218,56.0250934,55.7201374,55.915805,66.386827,64.6800455,63.6962201,72.3626348
38,75.0716197,92.1522015,82.6938605,74.6087576,74.9889295,94.8105709,74.9949584,56.0487739,61.5567698,68.5585301,57.9687418,55.9489991,55.6152185,57.4222462,67.0839448,65.2840291,66.8092274,71.9323943
39,76.8757676,96.953177,84.9996325,77.6743885,73.8740173,92.8923111,75.7912894,55.5350039,61.4556592,66.7798546,59.7220742,56.4133442,57.2400155,58.7630823,68.0828655,65.175964,66.9910185,72.3878533
40,77.2212534,101.9083826,86.2857092,77.4781846,74.0930546,91.5520253,76.663047,56.0688846,62.7638105,66.2982423,59.7283271,57.0924471,58.3987668,57.7213373,67.9024994,66.6240277,68.7466239,72.6791883
41,79.3917775,102.0049345,85.9232674,77.8611782,73.9469577,92.0702241,73.294059,56.4947237,65.2297405,68.4401572,61.4000444,56.6630633,57.8410883,59.4833071,68.0142255,68.7022858,69.6103772,72.1380288
42,80.657059,100.2346076,85.552133,77.3326303,76.9010677,87.9860686,72.7398704,55.48173,67.225947,67.6068967,62.9917657,57.8178564,58.4372981,59.0164757,67.4038306,70.2381482,70.3932463,72.2505615
43,82.4895664,100.0730766,86.7208128,76.0217913,78.8440883,87.2360557,70.5905431,56.6709726,67.6927377,68.6136192,64.0664364,59.0887757,58.8311314,60.4842397,67.4118842,70.6121726,71.0605226,74.9943412
44,83.8795938,100.2525966,89.1697963,75.1222423,77.3914329,84.8042792,69.2566187,57.4920535,67.3592016,69.1464119,64.8958975,62.9838236,58.9084736,60.8932903,67.5780875,72.3884481,72.226078,76.7262256
45,83.745049,98.8306345,92.1595277,77.2912636,79.689604,81.9670846,69.2514197,57.5825852,68.167982,69.2005761,64.6194258,63.7076181,59.6142922,64.6098312,67.8204596,71.5621581,72.2235394,76.8417067
46,84.2148783,98.4179892,93.9268871,78.2115357,79.7192956,82.5048654,69.3276127,59.2719664,68.3849407,68.3877288,65.2664698,66.6697692,61.1327128,64.6155383,67.8663127,70.7684702,74.6650142,76.3663897
47,83.4300274,97.9230261,94.0656871,79.5708485,79.4434626,82.542238,69.8180197,60.945506,68.4308533,69.1079957,65.6244653,66.0901316,61.9027531,64.7610457,68.2866494,70.1572129,74.691511,77.4195648
48,82.2455489,98.6588013,91.8924082,79.9390656,77.9020974,83.9642965,71.6721185,60.9959373,67.3004029,69.6834774,68.2488086,65.7696184,61.5695069,64.6712758,69.1305623,71.4728554,77.2539667,77.0615208
49,80.8464052,94.5798973,92.0287172,79.1409882,77.4800155,86.3346021,71.3553716,61.7331306,68.2425213,72.8941375,67.2241936,65.9448993,63.9198576,64.0902551,69.275079,76.5644837,76.7658251,76.9407899
50,81.2831948,95.2527075,89.7026188,78.4525892,74.8235791,89.9697128,71.8549914,63.279503,68.3414032,73.629109,67.8186095,65.2686498,64.6268472,63.1729619,67.3919362,75.8174143,80.1888073,79.6657802
51,82.9250592,95.3017534,89.0977514,77.571335,75.014681,92.7312691,71.6949162,63.1437073,70.6815279,72.5654747,67.005887,66.6941368,66.017404,63.0596822,67.289812,75.9125952,81.4043998,78.2609824
52,88.609311,94.2637004,89.309993,79.8246963,75.7726603,92.9742276,72.293499,65.0973778,72.131571,71.0191895,67.8335053,65.8243878,66.0623338,62.0757523,67.7159188,75.0446691,83.4851602,79.9585303
53,93.4462114,94.3717285,88.6040803,79.889769,77.4552383,92.2185278,71.9201801,65.0312653,71.9985387,71.3624973,66.5181588,66.6903483,66.3656334,63.8652691,69.0575239,77.2915246,82.3994202,81.1040654
54,96.9451093,93.5953498,88.416336,80.3162287,80.0125624,92.4433218,70.4553645,67.63693,74.3178648,72.0326764,66.6072357,69.5410765,67.0055261,65.042174,68.9092507,75.8333309,82.9845082,81.8380821
55,99.330972,95.0004926,86.9996123,82.737708,82.5270826,94.195879,70.1747515,68.3402445,73.989261,71.9641161,66.0648842,69.9765338,66.1888187,64.6022152,69.8646599,74.6989175,82.0042784,81.9251944
56,101.4769014,96.3346331,83.533475,82.6434801,82.40985,94.1766686,71.2881464,66.9770111,73.3674321,71.682536,67.7844762,74.1004169,67.415904,67.2494584,70.5962587,74.9051525,84.915641,82.4740214
57,99.2587349,96.5381919,84.6028572,83.0121943,83.3529749,94.4688148,71.5480941,69.4840471,73.8594564,72.2963924,67.0058197,75.2405112,64.1098825,67.8442386,70.8063023,74.778854,86.6074351,82.7968645
58,97.932429,93.5297605,86.463079,83.2087203,82.4766769,93.8756916,72.8399968,71.8075077,74.3712595,71.4555519,68.9239125,77.1733361,65.7038222,67.3373375,73.2521049,73.5755337,88.7658359,84.1437029
59,96.6628017,90.0414299,84.7304343,84.5828781,84.1197871,92.9796514,70.8224236,71.3213239,73.8628372,73.7119739,70.6646657,76.2050458,63.9039135,69.1354196,72.6213559,72.2171393,91.4129205,84.0488995
60,93.282368,85.6740959,86.1664965,85.0982772,82.8156289,91.3274421,71.1961348,73.9982202,74.0029259,74.0411258,71.4771562,75.085766,63.8314921,69.3303748,73.4641236,71.1617942,92.0981412,83.2608161
61,90.5680775,83.6719429,86.2339289,85.2340874,84.3525583,90.1626417,71.7881478,76.0910343,74.0341044,76.3555502,71.1600889,74.7969408,63.7596905,68.4433729,73.9652534,70.4956226,90.2827908,85.6203073
62,89.8474253,80.839972,85.7622853,88.7712622,86.3409476,87.9506193,72.5174746,77.009764,75.4317752,80.2239759,73.9827034,71.5973634,64.644238,67.2200516,76.0386664,69.2710064,90.3169264,86.6324232
63,89.3975764,80.8477519,85.7721019,88.3708566,86.9825461,87.8875002,71.8451322,75.6411178,74.8375406,82.5575991,74.7520055,68.0298509,64.3470006,66.2058696,76.4962787,70.2450948,90.7817121,87.1869548
64,89.3339041,79.7712923,88.0186597,87.1241574,87.7896108,87.0991832,72.6181811,75.7879534,73.6568729,83.1080215,76.5293199,66.5144549,64.0559352,67.5920872,78.5772552,68.9400843,88.8436807,87.2451065
65,90.1408811,82.3754166,92.219301,83.2291202,85.7465515,87.1698927,71.7767147,75.8917399,72.9152627,81.9469052,78.8860507,63.2246603,64.9400065,66.5606126,79.2594556,68.2359466,89.0124702,90.0344634
66,86.0139494,84.0571801,98.0978058,79.6466115,86.8721698,85.7391367,71.3660644,77.001767,74.8655417,80.724237,80.4288216,62.9286118,65.2089937,68.9017819,79.0283734,67.9917869,90.8955226,90.6017838
67,86.4100004,84.5668228,103.366209,77.0361136,87.4120871,85.9348789,72.9575626,76.6868198,75.228672,81.7534688,81.939707,60.0729245,65.2043892,69.0284982,81.2355692,69.920165,91.8548077,90.7000149
68,83.2479633,86.3988797,103.6577456,77.5794499,87.7253367,87.8394578,74.6740539,78.1366838,73.8696816,83.2381231,82.2482281,60.1816455,64.5355815,68.5268857,81.9035425,71.5366153,93.1239494,92.0401663
69,83.0931824,88.1760923,106.6418704,78.6523845,87.4687457,87.1263951,75.0324892,79.137009,73.512714,84.4025705,80.8327006,61.0830069,63.4889379,70.6195698,84.8354936,75.5510843,95.3592505,94.7597324
70,81.632006,87.684971,108.7880742,78.0847702,86.2097892,87.8448267,77.1545324,76.513892,74.7998904,83.0802049,79.011261,62.0113455,63.5909538,72.2494698,84.640173,75.100826,94.5751036,95.2337755
71,81.9848493,87.2894577,110.4230499,79.4979917,85.7288717,86.5006909,76.1590569,77.8565529,75.3199427,84.3754256,78.5543548,61.4686264,64.8365824,74.4402463,86.6288024,77.5631663,95.7116159,95.9253592
72,84.6288574,87.1302832,112.6612938,76.2592639,83.2556919,84.4241244,76.8160824,78.3955702,75.2971622,83.8804508,81.0486323,63.1795652,62.7796174,73.76188,87.5383471,80.6709863,91.7560294,96.7323121
73,85.0704869,87.8110414,110.4852405,77.3345453,83.6910318,83.2480421,74.6217258,78.3501981,76.2153398,83.2627398,79.7164846,64.9572581,63.9262443,73.8161996,86.9312991,81.3169549,90.267315,97.1213194
74,85.3538479,87.5618735,109.9674393,77.4259186,83.3717324,80.5985487,75.4094814,77.7355949,75.0747523,83.2486434,79.3123605,67.0462511,65.0112473,74.7540376,86.0711093,84.2014392,90.2062813,93.9888704
75,84.6732739,84.7797799,109.347803,77.2815903,84.1659376,78.2939718,77.3996484,76.6290661,74.6512752,80.5339891,77.9498561,67.5861842,63.4317608,73.8029581,84.9020829,85.621503,89.6342822,92.6530003
76,83.5213352,84.0085557,109.1114128,76.2920636,86.8768127,77.742361,76.8881823,76.9848464,75.4266207,79.3297889,80.4745006,67.7247416,63.0915688,74.4272716,85.0246711,82.719699,90.1459697,90.2069766
77,83.7288465,84.0190496,111.2154743,75.3836014,88.0389381,80.4119363,77.4977448,75.976369,76.7504881,80.2835351,80.2469442,68.0522698,63.7399451,74.9498867,87.1093526,83.9463578,89.9568557,88.458067
78,83.4926398,82.0024603,109.1187698,74.6291251,86.6719943,82.6272945,80.2841691,76.8670003,77.1407926,80.6987498,82.5023034,69.1829239,64.3885712,75.0872653,89.6286925,84.7172185,90.2963553,85.4817455
79,83.6560997,78.0346485,107.1830636,73.9733208,86.2368907,85.2264379,80.0294669,78.229317,76.447721,81.5677188,84.4742392,69.0773488,67.3354564,76.8349795,89.7522768,84.0788954,91.0180073,86.1916432
80,85.102837,76.0582857,102.0751222,74.8507035,85.6804216,85.5082916,79.3397213,80.0539301,78.97761,80.8410653,84.5330704,67.02681,66.8575586,78.4372651,91.521709,83.7189017,92.0393894,86.2604276
81,91.1084662,74.3043024,102.3824561,74.6329451,86.5764704,85.4518904,79.5680079,81.5169414,78.9290197,79.810099,83.7126522,66.5586167,68.2561032,79.5221514,90.9923987,85.8275589,91.9703219,86.3477332
82,96.5380219,74.8144029,101.9185644,73.4917804,84.8826928,84.96304,77.8381376,80.8517768,75.752506,81.0838375,79.8288414,66.8718948,68.3742204,80.6939509,90.6253817,85.419363,90.4845802,88.4786783
83,99.5188342,75.645446,101.687769,72.7546101,83.5520608,84.7654909,80.6913064,82.3226598,75.7544266,81.6600284,78.3611573,67.2837283,67.9968292,79.692919,92.0904981,87.0421823,91.4442965,89.8261258
84,101.1027927,78.5257685,99.4182034,74.7803735,83.0398887,85.914344,80.6177901,81.312892,76.1541766,81.2439332,76.7219796,68.1661455,68.0298295,80.0402173,91.5205524,88.1858213,92.0604535,89.7791366
85,100.8358808,80.2407343,97.2355273,72.5763588,85.7615863,85.8208464,82.0587457,81.0685723,75.1670285,81.7414194,75.5773502,67.2893611,69.5345225,79.0892622,91.7835138,90.0208234,89.0673966,90.2383918
86,99.6843452,82.0227896,93.3295181,75.2867678,88.5521998,85.7741884,81.4443362,80.413058,74.1381357,82.990529,73.340421,68.5155293,67.7514681,76.818627,91.265104,88.3590593,87.6226122,90.2170926
87,98.9137458,80.5386531,92.6193339,77.0842315,90.2973095,88.1505664,81.3369139,81.4585495,74.1463096,83.2780235,72.6638823,68.3845651,69.0504553,75.0982464,90.4462054,89.2449013,85.4384805,94.6096429
88,95.9419527,82.9789724,90.2297463,76.9365815,90.2144251,90.3491918,81.577668,81.470659,74.7361096,82.3097572,71.8142017,69.7539026,68.0345919,73.7434225,88.3792289,90.6456581,87.5553848,95.1178144
89,94.6397966,85.835378,87.5424851,77.0251211,90.3277753,92.6342468,82.0893552,81.9635065,76.5825908,80.8759565,70.3394611,69.4025767,66.1866407,74.657198,86.5598419,91.7161823,87.1413751,93.1692435
90,92.5815392,85.2982185,84.8538911,76.7525826,91.0742731,92.4730309,81.2021729,82.8901342,74.29385,80.329612,66.6072561,66.5296002,65.5309353,74.3181114,84.5657407,91.0639843,84.6082425,94.2942823
91,91.3035956,85.7156027,83.1343364,75.3792662,89.1265799,90.8979305,81.2771898,83.5339728,73.5214445,79.1208775,66.2893359,66.8949863,64.9520755,75.0541995,84.8323673,94.7692062,81.8456697,92.6806118
92,91.0526279,84.308368,81.8132245,75.9308327,90.0503734,92.433901,79.0664132,83.587089,74.481752,79.8637684,66.672456,67.1941245,66.3285991,75.3911967,84.7813409,97.0822777,82.6623501,91.6772585
93,90.3851537,81.8290656,80.4007645,75.016292,89.3641254,94.8793697,79.9329795,84.4933893,75.343913,80.6828054,65.9977769,64.6483028,66.0044008,75.1100956,83.1517297,97.0080013,83.2555171,90.9916758
94,88.9738292,79.9065204,80.3899168,76.5558477,89.4077518,92.3372474,80.5336746,85.4365643,75.7044751,81.5718114,66.9075391,63.9477963,65.5429848,74.4244671,82.7889265,98.1206128,83.4747747,89.3766834
95,88.557103,78.600038,80.2694948,78.4530554,86.891946,91.8931981,82.3038768,85.8702738,75.7231767,82.3682671,68.3758308,62.5704143,65.674058,73.2862505,82.7487259,101.1775255,81.1576646,90.3866206
96,86.9274805,78.3667548,80.8488061,77.2708373,86.0291385,92.3737824,83.8076101,86.9272295,75.3154409,84.7684763,68.5017981,61.5667318,66.4130912,73.0881004,82.0851656,101.3052285,83.5075399,90.2181156
97,88.0531108,75.3213333,81.9237266,77.7224357,88.6692701,94.5648328,83.5477345,88.1233945,77.1469905,85.7727229,68.0835579,59.1579743,66.7683547,74.7469937,81.2327833,102.6740504,82.0464335,91.2637128
98,89.2031719,73.479746,81.7180972,74.4948054,86.9324415,93.1841656,83.7814465,85.2312999,80.0037341,84.9397446,67.0517805,56.893667,68.3964003,73.9231391,80.1211693,100.269542,82.1636873,89.4883986
99,89.8234045,72.5284545,81.148266,72.9401518,86.9168974,90.7569715,82.1443779,83.1371794,80.7943918,83.4383257,66.9374543,57.5547098,70.0741942,76.2345566,79.7802277,97.2302633,81.3766881,90.314361
