Time (s),Slug TC (C),Outside TC (C),Surface TC (C)
0,37.378,33.22,34.83
1,37.242,32.94,34.935
2,37.14,33.08,35.145
3,37.242,33.57,35.495
4,37.752,33.57,35.495
5,38.568,113.604,110.714
6,39.622,113.604,110.714
7,40.264,141.435,131.68
8,41.155,146.02,134.69
9,41.881,148.05,134.13
10,42.475,149.24,135.915
11,43.234,149.94,138.05
12,43.993,150.28,139.205
13,44.521,150.455,139.275
14,44.818,150.525,137.28
15,45.016,150.805,137.245
16,45.313,150.77,137.945
17,45.577,150.805,137.63
18,45.874,150.805,138.12
19,46.138,150.875,138.925
20,46.534,150.7,139.275
21,46.732,150.735,138.75
22,47.128,150.84,138.295
23,47.359,150.77,138.96
24,47.656,150.805,139.1
25,47.854,150.805,139.52
26,48.25,150.875,139.38
27,48.382,150.84,139.66
28,48.448,150.77,139.415
29,48.811,150.77,139.275
30,48.976,150.77,139.24
31,49.306,150.875,139.205
32,49.768,150.84,139.87
33,49.669,150.875,139.94
34,50.165,150.77,139.73
35,50.297,150.77,139.73
36,50.66,150.735,139.94
37,50.924,150.91,139.415
38,51.155,150.875,139.8
39,51.287,151.015,140.21
40,51.617,150.84,139.45
41,51.716,150.91,139.52
42,52.079,150.84,140
43,52.277,150.77,140
44,52.409,150.735,139.695
45,52.805,150.735,140
46,53.003,150.805,140.01
47,53.069,150.84,139.065
48,53.168,150.735,139.135
49,53.399,150.77,139.135
50,53.63,150.84,139.345
51,54.026,150.875,139.625
52,54.026,150.84,139.975
53,54.356,150.84,139.66
54,54.455,150.91,140.035
55,54.686,150.945,140.315
56,54.785,150.945,140.28
57,54.95,150.91,140.21
58,55.28,151.015,140.245
59,55.412,151.05,140.595
60,55.676,151.05,141.015
61,55.907,151.015,140.63
62,56.006,151.015,140.805
63,56.204,150.98,140.455
64,56.303,151.015,140.63
65,56.6,151.12,140.63
66,56.831,151.12,140.7
67,57.029,150.98,140.735
68,57.359,151.26,140.665
69,57.524,151.365,140.735
70,57.656,151.4,140.77
71,57.788,151.295,141.015
72,58.085,151.365,140.665
73,58.217,151.365,140.665
74,58.382,151.295,140.385
75,58.613,151.365,140.91
76,58.745,151.365,141.26
77,58.877,151.365,141.015
78,59.207,151.4,141.12
79,59.207,151.295,140.84
80,59.438,151.435,140.945
81,59.702,151.505,139.905
82,59.702,151.575,140.77
83,59.768,151.365,140.665
84,60.064,151.435,139.87
85,60.224,151.33,140.91
86,60.32,151.295,140.665
87,60.416,151.505,140.385
88,60.672,151.155,140.315
89,60.672,151.47,140.525
90,60.832,151.505,140.805
91,61.12,151.33,140.77
92,61.376,151.435,140.735
93,61.504,151.505,140.77
94,61.504,151.54,140.385
95,61.6,151.47,140.7
96,61.984,151.47,140.945
97,61.984,151.47,140.665
98,61.92,151.435,141.19
99,62.304,151.61,140.98
100,62.4,151.645,141.05
101,62.528,151.505,141.19
102,62.72,151.575,141.645
103,62.848,151.505,141.61
104,62.784,151.435,141.4
105,63.104,151.54,141.925
106,63.328,151.61,141.855
107,63.456,151.575,141.925
108,63.488,151.575,141.33
109,63.616,151.505,141.54
110,63.872,151.295,141.75
111,64.128,151.47,141.47
112,64.224,151.4,141.505
113,64.352,151.4,142.065
114,64.544,151.505,141.295
115,64.544,151.575,142.205
116,64.8,151.4,141.47
117,64.96,151.54,140.84
118,64.928,151.54,140.595
119,65.184,151.61,140.56
120,65.504,151.505,141.54
121,65.536,151.54,140.595
122,65.792,151.33,140.77
123,65.888,151.54,141.26
124,66.016,151.61,141.505
125,66.176,151.61,141.61
126,66.336,151.575,141.435
127,66.56,151.4,142.03
128,66.848,151.855,142.485
129,66.944,151.785,142.66
130,67.104,151.68,142.17
131,67.232,151.715,142.1
132,67.488,151.785,141.75
133,67.52,151.68,142.03
134,67.712,151.68,142.345
135,67.616,151.61,142.555
136,67.84,151.855,142.625
137,68.032,151.715,141.54
138,67.936,151.68,141.82
139,68.224,151.68,142.275
140,68.32,151.68,141.785
141,68.448,151.82,141.785
142,68.576,151.645,142.17
143,68.832,151.715,142.1
144,68.864,151.645,141.96
145,69.056,151.82,142.765
146,69.056,151.75,142.345
147,69.248,151.785,142.73
148,69.184,151.82,142.03
149,69.408,151.68,141.785
150,69.568,151.68,141.61
151,69.632,151.715,141.435
152,69.664,151.75,140.945
153,69.824,151.68,141.68
154,69.888,151.645,142.03
155,70.062,151.715,142.1
156,70.186,151.505,141.82
157,70.341,151.645,142.38
158,70.434,151.715,142.38
159,70.558,151.75,141.715
160,70.651,151.575,142.1
161,70.775,151.68,142.38
162,70.899,151.75,142.975
163,70.961,151.715,142.345
164,71.333,151.715,142.38
165,71.395,151.61,143.01
166,71.395,151.785,142.03
167,71.612,151.575,142.345
168,71.643,151.785,142.205
169,71.581,151.715,141.96
170,71.922,151.68,142.205
171,71.922,151.75,142.59
172,72.046,151.785,142.59
173,72.232,151.785,143.045
174,72.387,151.68,143.535
175,72.356,151.75,142.555
176,72.418,151.75,142.345
177,72.697,151.61,142.625
178,72.821,151.61,142.8
179,73.007,151.715,142.835
180,73.131,151.82,142.975
181,73.193,151.715,141.925
182,73.317,151.785,141.925
183,73.317,151.89,141.505
184,73.255,151.715,141.47
185,73.441,151.68,142.1
186,73.472,151.68,141.75
187,73.534,151.54,142.03
188,73.813,151.995,142.1
189,73.968,152.03,142.59
190,74.123,151.89,142.45
191,74.247,151.89,142.52
192,74.216,151.995,142.24
193,74.495,152.03,142.03
194,74.526,151.89,142.065
195,74.588,151.96,142.065
196,74.681,151.855,142.415
197,74.96,151.89,142.52
198,75.022,151.89,142.66
199,75.022,151.925,142.1
200,75.332,152.065,142.52
201,75.301,151.785,142.415
202,75.487,151.925,143.01
203,75.518,151.96,142.905
204,75.549,151.82,143.185
205,75.704,151.995,143.22
206,75.859,152.03,143.675
207,76.014,151.925,142.275
208,76.014,151.925,142.17
209,76.107,151.89,142.52
210,76.262,151.96,143.01
211,76.231,151.995,142.695
212,76.355,151.785,142.205
213,76.448,151.925,142.205
214,76.51,151.995,142.45
215,76.51,151.96,142.625
216,76.696,151.925,142.52
217,76.913,151.925,143.01
218,77.006,151.855,142.345
219,76.944,151.89,141.785
220,77.161,151.925,142.94
221,77.161,151.89,142.695
222,77.254,151.785,142.87
223,77.254,151.785,142.415
224,77.378,151.925,142.59
225,77.502,152.03,142.415
226,77.564,151.82,142.135
227,77.688,151.89,142.31
228,77.719,151.89,143.325
229,77.967,151.785,142.415
230,78.091,151.89,141.96
231,78.184,151.855,141.89
232,78.153,151.715,142.87
233,78.308,151.785,143.115
234,78.308,151.89,142.905
235,78.37,151.785,142.8
236,78.463,151.855,142.345
237,78.556,151.925,141.085
238,78.68,151.855,142.52
239,78.711,151.785,142.345
240,78.742,151.785,142.52
241,78.897,151.925,142.45
242,78.959,151.785,142.94
243,79.052,151.855,142.415
244,79.083,151.82,142.415
245,79.052,151.855,142.66
246,79.238,151.855,142.555
247,79.331,151.925,142.065
248,79.579,151.855,142.38
249,79.734,152.135,142.975
250,79.672,151.925,142.695
251,79.765,151.995,142.94
252,79.796,152.065,141.61
253,80.093,151.96,142.765
254,80,151.925,142.45
255,80.217,152.065,142.38
256,80.217,152.065,142.975
257,80.403,151.995,143.325
258,80.434,151.995,143.465
259,80.527,151.925,143.22
260,80.589,151.925,142.03
261,80.744,151.96,142.8
262,80.806,151.995,143.08
263,80.899,151.855,143.01
264,80.961,151.89,142.765
265,81.209,151.89,143.08
266,81.178,151.89,143.465
267,81.333,151.75,143.815
268,81.519,151.855,144.06
269,81.643,151.89,144.025
270,81.705,151.925,142.94
271,81.798,151.855,143.57
272,81.705,151.785,144.06
273,81.891,151.89,144.375
274,81.953,151.715,144.34
275,82.201,151.75,144.095
276,82.17,151.715,143.325
277,82.201,151.715,143.745
278,82.356,151.82,143.85
279,82.387,151.785,143.85
280,82.542,151.82,142.73
281,82.604,151.855,143.395
282,82.697,151.89,143.29
283,82.728,151.82,143.535
284,82.79,151.925,143.36
285,82.79,151.855,143.01
286,82.914,151.785,143.85
287,83.069,151.785,143.885
288,83.1,151.785,144.165
289,83.007,151.96,143.955
290,83.1,151.89,143.22
291,83.069,151.89,143.43
292,83.348,151.82,144.34
293,83.41,151.68,143.99
294,83.286,151.785,143.955
295,83.472,151.75,144.235
296,83.596,151.82,143.955
297,83.689,151.855,143.71
298,83.751,151.715,143.115
299,83.689,151.855,142.415
300,83.844,151.82,142.835
